=== YEN ROUTING + FIRST FIT WAVELENGTH ALLOCATION ===

Network Parameters:
  Wavelengths: 8
  YEN Strategy: Always shortest path (k[0])
  Wavelength Strategy: First Fit (WITH WAVELENGTH CONVERSION)
  Temporal Model: Calls have duration and release wavelengths when expire
  Requests tested: [(0, 12), (1, 9), (2, 6), (3, 8), (5, 10)]

Blocking Probability Results:
Load	Req1	Req2	Req3	Req4	Req5
0	0.000000	0.000000	0.000000	0.000000	0.000000
1	0.000000	0.000000	0.000000	0.000000	0.000000
2	0.000000	0.000000	0.000000	0.000000	0.000000
3	0.000000	0.000000	0.000000	0.000000	0.000000
4	0.000000	0.000000	0.000000	0.000000	0.000000
5	0.000000	0.000000	0.000000	0.000000	0.000000
6	0.003500	0.002800	0.003200	0.002100	0.002800
7	0.023500	0.028100	0.026300	0.029200	0.029500
8	0.067600	0.064700	0.071000	0.068200	0.074700
9	0.120000	0.117100	0.126100	0.124600	0.130700
10	0.168700	0.168600	0.174300	0.174300	0.183700
11	0.217700	0.208800	0.219500	0.230000	0.225400
12	0.261200	0.257300	0.266600	0.265800	0.272100
13	0.293300	0.288800	0.313000	0.301600	0.314300
14	0.331200	0.330800	0.342400	0.338100	0.353700
15	0.362500	0.359000	0.358000	0.368200	0.380700
16	0.389000	0.383100	0.400400	0.393500	0.406100
17	0.415500	0.406000	0.425700	0.417100	0.427900
18	0.436500	0.427300	0.441700	0.444900	0.452900
19	0.455400	0.451600	0.463300	0.469400	0.470200
20	0.469400	0.463700	0.481900	0.480700	0.490700
21	0.485000	0.489700	0.503400	0.501900	0.505000
22	0.504000	0.492900	0.516900	0.520300	0.522300
23	0.514300	0.517800	0.529800	0.532000	0.536000
24	0.533400	0.530700	0.544800	0.545100	0.555900
25	0.543300	0.541100	0.546700	0.555300	0.553800
26	0.550400	0.542900	0.557600	0.573700	0.566300
27	0.564500	0.560200	0.574200	0.576400	0.580200
28	0.573800	0.562900	0.581900	0.581700	0.592800
29	0.587100	0.582000	0.592400	0.592300	0.597900
30	0.585300	0.594600	0.601300	0.605700	0.614500

=== STATISTICS (Load 1-30) ===

[0,12]:
  Average: 0.315203
  Max: 0.587100
  Min: 0.000000
  Std Dev: 0.217861

[1,9]:
  Average: 0.312417
  Max: 0.594600
  Min: 0.000000
  Std Dev: 0.216538

[2,6]:
  Average: 0.322080
  Max: 0.601300
  Min: 0.000000
  Std Dev: 0.221721

[3,8]:
  Average: 0.323070
  Max: 0.605700
  Min: 0.000000
  Std Dev: 0.222958

[5,10]:
  Average: 0.328003
  Max: 0.614500
  Min: 0.000000
  Std Dev: 0.224577
