=== YEN ROUTING + FIRST FIT WAVELENGTH ALLOCATION ===

Network Parameters:
  Wavelengths: 8
  YEN Strategy: Always shortest path (k[0])
  Wavelength Strategy: First Fit (WITH WAVELENGTH CONVERSION)
  Temporal Model: Calls have duration and release wavelengths when expire
  Requests tested: [(0, 12), (1, 9), (2, 6), (3, 8), (5, 10)]

Blocking Probability Results:
Load	Req1	Req2	Req3	Req4	Req5
0	0.000000	0.000000	0.000000	0.000000	0.000000
1	0.000000	0.000000	0.000000	0.000000	0.000000
2	0.000000	0.000000	0.000000	0.000000	0.000000
3	0.000000	0.000000	0.000000	0.000000	0.000000
4	0.000000	0.000000	0.000000	0.000000	0.000000
5	0.000000	0.000000	0.000000	0.000000	0.000000
6	0.003900	0.003800	0.003800	0.003000	0.003100
7	0.026400	0.024900	0.026400	0.027800	0.028100
8	0.065300	0.070000	0.069400	0.071300	0.075300
9	0.120000	0.115800	0.126800	0.122800	0.129500
10	0.167400	0.166700	0.178000	0.177100	0.185300
11	0.213800	0.211800	0.223700	0.228300	0.228000
12	0.259100	0.245800	0.267300	0.268600	0.267400
13	0.299100	0.294000	0.302900	0.306900	0.314200
14	0.333500	0.330400	0.341700	0.341500	0.348800
15	0.359700	0.358700	0.370900	0.370100	0.375500
16	0.390200	0.385500	0.404900	0.400000	0.402300
17	0.404500	0.406400	0.420200	0.426600	0.427400
18	0.437900	0.435000	0.445000	0.445700	0.458900
19	0.443700	0.448600	0.462000	0.466000	0.468200
20	0.472300	0.464800	0.480800	0.483000	0.487900
21	0.496800	0.482600	0.505000	0.500700	0.506700
22	0.506900	0.502100	0.522100	0.515200	0.521600
23	0.521400	0.509300	0.535200	0.529900	0.531200
24	0.537100	0.523100	0.539800	0.536700	0.558100
25	0.545000	0.539500	0.553500	0.554000	0.562200
26	0.552600	0.548500	0.558300	0.568500	0.574900
27	0.563500	0.563300	0.575700	0.579800	0.579500
28	0.572700	0.567200	0.589200	0.585600	0.585400
29	0.575800	0.578700	0.590400	0.596700	0.604200
30	0.589500	0.591500	0.604700	0.604800	0.608600

=== STATISTICS (Load 1-30) ===

[0,12]:
  Average: 0.315270
  Max: 0.589500
  Min: 0.000000
  Std Dev: 0.218104

[1,9]:
  Average: 0.312267
  Max: 0.591500
  Min: 0.000000
  Std Dev: 0.216408

[2,6]:
  Average: 0.323257
  Max: 0.604700
  Min: 0.000000
  Std Dev: 0.222522

[3,8]:
  Average: 0.323687
  Max: 0.604800
  Min: 0.000000
  Std Dev: 0.222730

[5,10]:
  Average: 0.327743
  Max: 0.608600
  Min: 0.000000
  Std Dev: 0.224747
