=== YEN ROUTING + FIRST FIT WAVELENGTH ALLOCATION ===

Network Parameters:
  Wavelengths: 8
  YEN Strategy: Always shortest path (k[0])
  Wavelength Strategy: First Fit (WITH WAVELENGTH CONVERSION)
  Temporal Model: Calls have duration and release wavelengths when expire
  Requests tested: [(0, 12), (1, 9), (2, 6), (3, 8), (5, 10)]

Blocking Probability Results:
Load	Req1	Req2	Req3	Req4	Req5
0	0.000000	0.000000	0.000000	0.000000	0.000000
1	0.000000	0.000000	0.000000	0.000000	0.000000
2	0.000000	0.000000	0.000000	0.000000	0.000000
3	0.000000	0.000000	0.000000	0.000000	0.000000
4	0.000000	0.000000	0.000000	0.000000	0.000000
5	0.000000	0.000000	0.000000	0.000000	0.000000
6	0.002900	0.002350	0.003400	0.002800	0.003200
7	0.026500	0.026150	0.029100	0.026750	0.027600
8	0.067700	0.070600	0.075650	0.072500	0.074400
9	0.121500	0.116050	0.126200	0.124500	0.128200
10	0.173000	0.168600	0.175850	0.174750	0.179800
11	0.219350	0.214150	0.227600	0.225350	0.230200
12	0.258750	0.254050	0.268650	0.268700	0.275450
13	0.297150	0.293950	0.301600	0.298600	0.308550
14	0.329600	0.327500	0.339150	0.343950	0.346450
15	0.358700	0.358250	0.369900	0.371050	0.380350
16	0.387950	0.382800	0.399250	0.403900	0.406500
17	0.410450	0.410900	0.419900	0.424350	0.430650
18	0.439150	0.425350	0.443750	0.446550	0.452500
19	0.459400	0.449750	0.466950	0.465450	0.471800
20	0.473150	0.467300	0.485000	0.487200	0.490900
21	0.488500	0.486800	0.499400	0.500250	0.503100
22	0.503950	0.503750	0.514950	0.516400	0.519950
23	0.516150	0.515500	0.527800	0.529450	0.534650
24	0.531600	0.528200	0.540600	0.539650	0.553850
25	0.544150	0.534750	0.549850	0.556250	0.565650
26	0.551800	0.552950	0.565850	0.568250	0.575100
27	0.562050	0.561800	0.571050	0.574650	0.585300
28	0.571600	0.569450	0.585100	0.590400	0.589800
29	0.582350	0.574250	0.598100	0.599350	0.602950
30	0.589300	0.592400	0.603300	0.608150	0.606400

=== STATISTICS (Load 1-30) ===

[0,12]:
  Average: 0.315557
  Max: 0.589300
  Min: 0.000000
  Std Dev: 0.217665

[1,9]:
  Average: 0.312920
  Max: 0.592400
  Min: 0.000000
  Std Dev: 0.216574

[2,6]:
  Average: 0.322932
  Max: 0.603300
  Min: 0.000000
  Std Dev: 0.221782

[3,8]:
  Average: 0.323973
  Max: 0.608150
  Min: 0.000000
  Std Dev: 0.223357

[5,10]:
  Average: 0.328110
  Max: 0.606400
  Min: 0.000000
  Std Dev: 0.225215
