=== YEN ROUTING + FIRST FIT WAVELENGTH ALLOCATION ===

Network Parameters:
  Wavelengths: 4
  YEN Strategy: Always shortest path (k[0])
  Wavelength Strategy: First Fit (WITH WAVELENGTH CONVERSION)
  Temporal Model: Calls have duration and release wavelengths when expire
  Requests tested: [(0, 12), (1, 9), (2, 6), (3, 8), (5, 10)]

Blocking Probability Results:
Load	Req1	Req2	Req3	Req4	Req5
0	0.000000	0.000000	0.000000	0.000000	0.000000
1	0.000000	0.000000	0.000000	0.000000	0.000000
2	0.000000	0.000000	0.000000	0.000000	0.000000
3	0.026800	0.022100	0.022800	0.024100	0.026200
4	0.115800	0.115000	0.122200	0.119400	0.124500
5	0.212000	0.209200	0.217700	0.225700	0.234600
6	0.296900	0.288900	0.302600	0.299000	0.307300
7	0.358200	0.354600	0.370900	0.368100	0.374200
8	0.404300	0.401700	0.423800	0.421100	0.426700
9	0.447500	0.453800	0.460400	0.464000	0.469900
10	0.485100	0.479700	0.499200	0.501900	0.502400
11	0.518400	0.511900	0.522900	0.528400	0.535300
12	0.543100	0.537900	0.562900	0.554300	0.558800
13	0.563100	0.559200	0.576400	0.573000	0.582200
14	0.588800	0.569400	0.598200	0.594500	0.600300
15	0.601400	0.594600	0.611500	0.609800	0.617400
16	0.616700	0.611700	0.628600	0.622900	0.628000
17	0.632600	0.626700	0.651500	0.642900	0.644100
18	0.640000	0.634400	0.653900	0.652000	0.657200
19	0.654100	0.648600	0.663900	0.666400	0.667400
20	0.659500	0.656100	0.668700	0.666000	0.677900
21	0.662600	0.661500	0.682300	0.680500	0.684600
22	0.673700	0.670600	0.688300	0.688100	0.698400
23	0.691700	0.675600	0.691900	0.699600	0.701100
24	0.692000	0.677400	0.697500	0.698300	0.709600
25	0.691000	0.697000	0.704100	0.711400	0.714000
26	0.704600	0.701900	0.715100	0.713500	0.722000
27	0.709500	0.707700	0.722500	0.714800	0.725300
28	0.712100	0.711100	0.726000	0.726500	0.731100
29	0.714900	0.718000	0.726900	0.729600	0.740500
30	0.714500	0.716000	0.733300	0.735300	0.738900

=== STATISTICS (Load 1-30) ===

[0,12]:
  Average: 0.511030
  Max: 0.714900
  Min: 0.000000
  Std Dev: 0.226442

[1,9]:
  Average: 0.507077
  Max: 0.718000
  Min: 0.000000
  Std Dev: 0.225716

[2,6]:
  Average: 0.521533
  Max: 0.733300
  Min: 0.000000
  Std Dev: 0.230150

[3,8]:
  Average: 0.521037
  Max: 0.735300
  Min: 0.000000
  Std Dev: 0.229891

[5,10]:
  Average: 0.526663
  Max: 0.740500
  Min: 0.000000
  Std Dev: 0.231131
